   Coefficients of polinom: T=K1+K2*(1000.0/R)+...+K7*[(1000.0/R)]**6+... 
__________________________________________________________________________

K1 = -0.083187789728981443
K2 = 24.182243855786509800
K3 = -151.734762541018426000
K4 = 858.858483688905835000
K5 = -2147.159007154405120000
K6 = 2843.009190287441020000
K7 = -1069.679393261671070000
__________________________				               K248-15
		           Calibrated (1.5 - 300 K), I measur.= 10.00 µA
TMi Carbon Ceramic Sensor (CCS), type A2, N 836

Measured   R,Ohm 10016.180 9144.520 8496.440 6835.830 5583.820 4963.370 
Measured   T,K      1.492    1.605    1.707    2.088    2.593    2.990 
Calculated T,K      1.487    1.605    1.711    2.093    2.594    2.988 
Error     DT,mK    -4.806    0.464    3.692    4.622    0.952   -1.949 
__________________________________________________________________________

Measured   R,Ohm 4549.610 4135.410 3884.820 3493.130 3152.950 2744.550 
Measured   T,K      3.351    3.835    4.214    5.008    6.028    8.036 
Calculated T,K      3.348    3.831    4.211    5.011    6.033    8.039 
Error     DT,mK    -3.028   -3.823   -2.704    2.756    4.940    3.364 
__________________________________________________________________________

Measured   R,Ohm 2505.550 2337.670 2163.550 2044.430 1979.610 1775.500 
Measured   T,K      9.987   12.002   15.037   17.996   20.044   29.770 
Calculated T,K      9.987   11.996   15.032   17.996   20.051   29.772 
Error     DT,mK    -0.310   -5.592   -4.816    0.020    6.999    1.796 
__________________________________________________________________________

Measured   R,Ohm 1412.530 1312.640 1201.430 1144.780 1088.860 1047.470 
Measured   T,K     77.292  107.205  159.693  198.285  247.583  293.160 
Calculated T,K     77.285  107.205  159.699  198.292  247.568  293.166 
Error     DT,mK    -6.826    0.423    5.514    7.358  -15.396    6.351 
__________________________________________________________________________

    R,Ohm   T,K        R,Ohm   T,K        R,Ohm   T,K        R,Ohm   T,K     

  10000.00  1.489    9800.00   1.514    9600.00   1.541    9400.00   1.568
  9990.00   1.490    9790.00   1.516    9590.00   1.542    9390.00   1.570
  9980.00   1.492    9780.00   1.517    9580.00   1.544    9380.00   1.571
  9970.00   1.493    9770.00   1.518    9570.00   1.545    9370.00   1.573
  9960.00   1.494    9760.00   1.520    9560.00   1.546    9360.00   1.574
  9950.00   1.495    9750.00   1.521    9550.00   1.548    9350.00   1.575
  9940.00   1.497    9740.00   1.522    9540.00   1.549    9340.00   1.577
  9930.00   1.498    9730.00   1.524    9530.00   1.550    9330.00   1.578
  9920.00   1.499    9720.00   1.525    9520.00   1.552    9320.00   1.580
  9910.00   1.500    9710.00   1.526    9510.00   1.553    9310.00   1.581
  9900.00   1.502    9700.00   1.527    9500.00   1.554    9300.00   1.583
  9890.00   1.503    9690.00   1.529    9490.00   1.556    9290.00   1.584
  9880.00   1.504    9680.00   1.530    9480.00   1.557    9280.00   1.586
  9870.00   1.505    9670.00   1.531    9470.00   1.559    9270.00   1.587
  9860.00   1.507    9660.00   1.533    9460.00   1.560    9260.00   1.588
  9850.00   1.508    9650.00   1.534    9450.00   1.561    9250.00   1.590
  9840.00   1.509    9640.00   1.535    9440.00   1.563    9240.00   1.591
  9830.00   1.511    9630.00   1.537    9430.00   1.564    9230.00   1.593
  9820.00   1.512    9620.00   1.538    9420.00   1.566    9220.00   1.594
  9810.00   1.513    9610.00   1.539    9410.00   1.567    9210.00   1.596

  9200.00   1.597    8640.00   1.686    8080.00   1.789    7520.00   1.910
  9190.00   1.599    8630.00   1.688    8070.00   1.791    7510.00   1.912
  9180.00   1.600    8620.00   1.689    8060.00   1.793    7500.00   1.915
  9170.00   1.602    8610.00   1.691    8050.00   1.795    7490.00   1.917
  9160.00   1.603    8600.00   1.693    8040.00   1.797    7480.00   1.919
  9150.00   1.605    8590.00   1.694    8030.00   1.799    7470.00   1.922
  9140.00   1.606    8580.00   1.696    8020.00   1.801    7460.00   1.924
  9130.00   1.608    8570.00   1.698    8010.00   1.803    7450.00   1.927
  9120.00   1.609    8560.00   1.700    8000.00   1.805    7440.00   1.929
  9110.00   1.611    8550.00   1.701    7990.00   1.807    7430.00   1.931
  9100.00   1.612    8540.00   1.703    7980.00   1.809    7420.00   1.934
  9090.00   1.614    8530.00   1.705    7970.00   1.811    7410.00   1.936
  9080.00   1.615    8520.00   1.707    7960.00   1.813    7400.00   1.939
  9070.00   1.617    8510.00   1.708    7950.00   1.815    7390.00   1.941
  9060.00   1.618    8500.00   1.710    7940.00   1.817    7380.00   1.944
  9050.00   1.620    8490.00   1.712    7930.00   1.819    7370.00   1.946
  9040.00   1.621    8480.00   1.714    7920.00   1.821    7360.00   1.949
  9030.00   1.623    8470.00   1.715    7910.00   1.823    7350.00   1.951
  9020.00   1.624    8460.00   1.717    7900.00   1.825    7340.00   1.954
  9010.00   1.626    8450.00   1.719    7890.00   1.827    7330.00   1.956
  9000.00   1.627    8440.00   1.721    7880.00   1.830    7320.00   1.959
  8990.00   1.629    8430.00   1.723    7870.00   1.832    7310.00   1.961
  8980.00   1.631    8420.00   1.724    7860.00   1.834    7300.00   1.964
  8970.00   1.632    8410.00   1.726    7850.00   1.836    7290.00   1.966
  8960.00   1.634    8400.00   1.728    7840.00   1.838    7280.00   1.969
  8950.00   1.635    8390.00   1.730    7830.00   1.840    7270.00   1.972
  8940.00   1.637    8380.00   1.732    7820.00   1.842    7260.00   1.974
  8930.00   1.638    8370.00   1.733    7810.00   1.844    7250.00   1.977
  8920.00   1.640    8360.00   1.735    7800.00   1.847    7240.00   1.979
  8910.00   1.642    8350.00   1.737    7790.00   1.849    7230.00   1.982
  8900.00   1.643    8340.00   1.739    7780.00   1.851    7220.00   1.985
  8890.00   1.645    8330.00   1.741    7770.00   1.853    7210.00   1.987
  8880.00   1.646    8320.00   1.743    7760.00   1.855    7200.00   1.990
  8870.00   1.648    8310.00   1.744    7750.00   1.857    7190.00   1.992
  8860.00   1.650    8300.00   1.746    7740.00   1.860    7180.00   1.995
  8850.00   1.651    8290.00   1.748    7730.00   1.862    7170.00   1.998
  8840.00   1.653    8280.00   1.750    7720.00   1.864    7160.00   2.000
  8830.00   1.654    8270.00   1.752    7710.00   1.866    7150.00   2.003
  8820.00   1.656    8260.00   1.754    7700.00   1.869    7140.00   2.006
  8810.00   1.658    8250.00   1.756    7690.00   1.871    7130.00   2.009
  8800.00   1.659    8240.00   1.758    7680.00   1.873    7120.00   2.011
  8790.00   1.661    8230.00   1.759    7670.00   1.875    7110.00   2.014
  8780.00   1.663    8220.00   1.761    7660.00   1.878    7100.00   2.017
  8770.00   1.664    8210.00   1.763    7650.00   1.880    7090.00   2.019
  8760.00   1.666    8200.00   1.765    7640.00   1.882    7080.00   2.022
  8750.00   1.667    8190.00   1.767    7630.00   1.884    7070.00   2.025
  8740.00   1.669    8180.00   1.769    7620.00   1.887    7060.00   2.028
  8730.00   1.671    8170.00   1.771    7610.00   1.889    7050.00   2.030
  8720.00   1.672    8160.00   1.773    7600.00   1.891    7040.00   2.033
  8710.00   1.674    8150.00   1.775    7590.00   1.893    7030.00   2.036
  8700.00   1.676    8140.00   1.777    7580.00   1.896    7020.00   2.039
  8690.00   1.677    8130.00   1.779    7570.00   1.898    7010.00   2.042
  8680.00   1.679    8120.00   1.781    7560.00   1.900    7000.00   2.045
  8670.00   1.681    8110.00   1.783    7550.00   1.903    6990.00   2.047
  8660.00   1.682    8100.00   1.785    7540.00   1.905    6980.00   2.050
  8650.00   1.684    8090.00   1.787    7530.00   1.907    6970.00   2.053


  6960.00   2.056    6400.00   2.237    5840.00   2.466    5280.00   2.770
  6950.00   2.059    6390.00   2.240    5830.00   2.471    5270.00   2.776
  6940.00   2.062    6380.00   2.244    5820.00   2.476    5260.00   2.782
  6930.00   2.065    6370.00   2.247    5810.00   2.480    5250.00   2.789
  6920.00   2.068    6360.00   2.251    5800.00   2.485    5240.00   2.795
  6910.00   2.071    6350.00   2.255    5790.00   2.490    5230.00   2.801
  6900.00   2.073    6340.00   2.258    5780.00   2.495    5220.00   2.808
  6890.00   2.076    6330.00   2.262    5770.00   2.500    5210.00   2.814
  6880.00   2.079    6320.00   2.266    5760.00   2.504    5200.00   2.821
  6870.00   2.082    6310.00   2.270    5750.00   2.509    5190.00   2.828
  6860.00   2.085    6300.00   2.273    5740.00   2.514    5180.00   2.834
  6850.00   2.088    6290.00   2.277    5730.00   2.519    5170.00   2.841
  6840.00   2.091    6280.00   2.281    5720.00   2.524    5160.00   2.848
  6830.00   2.094    6270.00   2.285    5710.00   2.529    5150.00   2.854
  6820.00   2.097    6260.00   2.289    5700.00   2.534    5140.00   2.861
  6810.00   2.100    6250.00   2.292    5690.00   2.539    5130.00   2.868
  6800.00   2.104    6240.00   2.296    5680.00   2.544    5120.00   2.875
  6790.00   2.107    6230.00   2.300    5670.00   2.549    5110.00   2.882
  6780.00   2.110    6220.00   2.304    5660.00   2.554    5100.00   2.889
  6770.00   2.113    6210.00   2.308    5650.00   2.559    5090.00   2.896
  6760.00   2.116    6200.00   2.312    5640.00   2.565    5080.00   2.903
  6750.00   2.119    6190.00   2.316    5630.00   2.570    5070.00   2.910
  6740.00   2.122    6180.00   2.320    5620.00   2.575    5060.00   2.917
  6730.00   2.125    6170.00   2.324    5610.00   2.580    5050.00   2.924
  6720.00   2.128    6160.00   2.328    5600.00   2.585    5040.00   2.931
  6710.00   2.132    6150.00   2.332    5590.00   2.591    5030.00   2.939
  6700.00   2.135    6140.00   2.336    5580.00   2.596    5020.00   2.946
  6690.00   2.138    6130.00   2.340    5570.00   2.601    5010.00   2.953
  6680.00   2.141    6120.00   2.344    5560.00   2.607    5000.00   2.961
  6670.00   2.144    6110.00   2.348    5550.00   2.612    4990.00   2.968
  6660.00   2.148    6100.00   2.352    5540.00   2.618    4980.00   2.976
  6650.00   2.151    6090.00   2.356    5530.00   2.623    4970.00   2.983
  6640.00   2.154    6080.00   2.361    5520.00   2.628    4960.00   2.991
  6630.00   2.157    6070.00   2.365    5510.00   2.634    4950.00   2.998
  6620.00   2.161    6060.00   2.369    5500.00   2.640    4940.00   3.006
  6610.00   2.164    6050.00   2.373    5490.00   2.645    4930.00   3.014
  6600.00   2.167    6040.00   2.377    5480.00   2.651    4920.00   3.021
  6590.00   2.171    6030.00   2.382    5470.00   2.656    4910.00   3.029
  6580.00   2.174    6020.00   2.386    5460.00   2.662    4900.00   3.037
  6570.00   2.177    6010.00   2.390    5450.00   2.668    4890.00   3.045
  6560.00   2.181    6000.00   2.394    5440.00   2.673    4880.00   3.053
  6550.00   2.184    5990.00   2.399    5430.00   2.679    4870.00   3.061
  6540.00   2.187    5980.00   2.403    5420.00   2.685    4860.00   3.069
  6530.00   2.191    5970.00   2.408    5410.00   2.691    4850.00   3.077
  6520.00   2.194    5960.00   2.412    5400.00   2.697    4840.00   3.085
  6510.00   2.198    5950.00   2.416    5390.00   2.703    4830.00   3.094
  6500.00   2.201    5940.00   2.421    5380.00   2.708    4820.00   3.102
  6490.00   2.205    5930.00   2.425    5370.00   2.714    4810.00   3.110
  6480.00   2.208    5920.00   2.430    5360.00   2.720    4800.00   3.119
  6470.00   2.212    5910.00   2.434    5350.00   2.726    4790.00   3.127
  6460.00   2.215    5900.00   2.439    5340.00   2.732    4780.00   3.136
  6450.00   2.219    5890.00   2.443    5330.00   2.739    4770.00   3.144
  6440.00   2.222    5880.00   2.448    5320.00   2.745    4760.00   3.153
  6430.00   2.226    5870.00   2.452    5310.00   2.751    4750.00   3.161
  6420.00   2.229    5860.00   2.457    5300.00   2.757    4740.00   3.170
  6410.00   2.233    5850.00   2.462    5290.00   2.763    4730.00   3.179


  4720.00   3.188    4160.00   3.798    3600.00   4.761    3040.00   6.478
  4710.00   3.197    4150.00   3.811    3590.00   4.783    3030.00   6.520
  4700.00   3.206    4140.00   3.825    3580.00   4.806    3020.00   6.564
  4690.00   3.215    4130.00   3.839    3570.00   4.829    3010.00   6.607
  4680.00   3.224    4120.00   3.852    3560.00   4.851    3000.00   6.652
  4670.00   3.233    4110.00   3.866    3550.00   4.875    2990.00   6.697
  4660.00   3.242    4100.00   3.880    3540.00   4.898    2980.00   6.743
  4650.00   3.251    4090.00   3.894    3530.00   4.922    2970.00   6.789
  4640.00   3.261    4080.00   3.908    3520.00   4.945    2960.00   6.836
  4630.00   3.270    4070.00   3.923    3510.00   4.970    2950.00   6.884
  4620.00   3.279    4060.00   3.937    3500.00   4.994    2940.00   6.932
  4610.00   3.289    4050.00   3.952    3490.00   5.018    2930.00   6.981
  4600.00   3.299    4040.00   3.966    3480.00   5.043    2920.00   7.031
  4590.00   3.308    4030.00   3.981    3470.00   5.069    2910.00   7.082
  4580.00   3.318    4020.00   3.996    3460.00   5.094    2900.00   7.133
  4570.00   3.328    4010.00   4.011    3450.00   5.120    2890.00   7.185
  4560.00   3.338    4000.00   4.026    3440.00   5.146    2880.00   7.238
  4550.00   3.348    3990.00   4.042    3430.00   5.172    2870.00   7.291
  4540.00   3.358    3980.00   4.057    3420.00   5.198    2860.00   7.346
  4530.00   3.368    3970.00   4.073    3410.00   5.225    2850.00   7.401
  4520.00   3.378    3960.00   4.089    3400.00   5.252    2840.00   7.457
  4510.00   3.388    3950.00   4.104    3390.00   5.280    2830.00   7.514
  4500.00   3.398    3940.00   4.120    3380.00   5.308    2820.00   7.572
  4490.00   3.409    3930.00   4.137    3370.00   5.336    2810.00   7.631
  4480.00   3.419    3920.00   4.153    3360.00   5.364    2800.00   7.691
  4470.00   3.430    3910.00   4.169    3350.00   5.393    2790.00   7.751
  4460.00   3.440    3900.00   4.186    3340.00   5.422    2780.00   7.813
  4450.00   3.451    3890.00   4.203    3330.00   5.451    2770.00   7.875
  4440.00   3.462    3880.00   4.219    3320.00   5.481    2760.00   7.939
  4430.00   3.472    3870.00   4.236    3310.00   5.511    2750.00   8.004
  4420.00   3.483    3860.00   4.254    3300.00   5.541    2740.00   8.069
  4410.00   3.494    3850.00   4.271    3290.00   5.572    2730.00   8.136
  4400.00   3.505    3840.00   4.288    3280.00   5.603    2720.00   8.204
  4390.00   3.517    3830.00   4.306    3270.00   5.635    2710.00   8.273
  4380.00   3.528    3820.00   4.324    3260.00   5.666    2700.00   8.343
  4370.00   3.539    3810.00   4.342    3250.00   5.699    2690.00   8.415
  4360.00   3.551    3800.00   4.360    3240.00   5.731    2680.00   8.488
  4350.00   3.562    3790.00   4.378    3230.00   5.764    2670.00   8.561
  4340.00   3.574    3780.00   4.397    3220.00   5.798    2660.00   8.637
  4330.00   3.585    3770.00   4.415    3210.00   5.832    2650.00   8.713
  4320.00   3.597    3760.00   4.434    3200.00   5.866    2640.00   8.791
  4310.00   3.609    3750.00   4.453    3190.00   5.901    2630.00   8.870
  4300.00   3.621    3740.00   4.472    3180.00   5.936    2620.00   8.951
  4290.00   3.633    3730.00   4.492    3170.00   5.971    2610.00   9.033
  4280.00   3.645    3720.00   4.511    3160.00   6.007    2600.00   9.116
  4270.00   3.657    3710.00   4.531    3150.00   6.044    2590.00   9.202
  4260.00   3.669    3700.00   4.551    3140.00   6.081    2580.00   9.288
  4250.00   3.682    3690.00   4.571    3130.00   6.118    2570.00   9.376
  4240.00   3.694    3680.00   4.591    3120.00   6.156    2560.00   9.466
  4230.00   3.707    3670.00   4.612    3110.00   6.194    2550.00   9.558
  4220.00   3.720    3660.00   4.633    3100.00   6.233    2540.00   9.651
  4210.00   3.732    3650.00   4.654    3090.00   6.273    2530.00   9.746
  4200.00   3.745    3640.00   4.675    3080.00   6.313    2520.00   9.843
  4190.00   3.758    3630.00   4.696    3070.00   6.353    2510.00   9.942
  4180.00   3.771    3620.00   4.718    3060.00   6.394    2500.00  10.043
  4170.00   3.785    3610.00   4.739    3050.00   6.436    2490.00  10.146


  2480.00  10.250    1920.00  22.303    1360.00  91.465
  2470.00  10.357    1910.00  22.721    1350.00  94.532
  2460.00  10.466    1900.00  23.151    1340.00  97.730
  2450.00  10.577    1890.00  23.594    1330.00  101.066
  2440.00  10.690    1880.00  24.050    1320.00  104.547
  2430.00  10.806    1870.00  24.521    1310.00  108.179
  2420.00  10.924    1860.00  25.006    1300.00  111.971
  2410.00  11.045    1850.00  25.507    1290.00  115.929
  2400.00  11.168    1840.00  26.023    1280.00  120.062
  2390.00  11.294    1830.00  26.555    1270.00  124.378
  2380.00  11.422    1820.00  27.104    1260.00  128.888
  2370.00  11.553    1810.00  27.671    1250.00  133.599
  2360.00  11.687    1800.00  28.256    1240.00  138.522
  2350.00  11.824    1790.00  28.861    1230.00  143.668
  2340.00  11.963    1780.00  29.484    1220.00  149.048
  2330.00  12.106    1770.00  30.129    1210.00  154.673
  2320.00  12.252    1760.00  30.795    1200.00  160.556
  2310.00  12.402    1750.00  31.482    1190.00  166.709
  2300.00  12.554    1740.00  32.193    1180.00  173.146
  2290.00  12.710    1730.00  32.928    1170.00  179.881
  2280.00  12.870    1720.00  33.689    1160.00  186.929
  2270.00  13.033    1710.00  34.475    1150.00  194.306
  2260.00  13.201    1700.00  35.288    1140.00  202.027
  2250.00  13.372    1690.00  36.129    1130.00  210.110
  2240.00  13.547    1680.00  37.000    1120.00  218.573
  2230.00  13.726    1670.00  37.901    1110.00  227.434
  2220.00  13.909    1660.00  38.834    1100.00  236.714
  2210.00  14.097    1650.00  39.801    1090.00  246.431
  2200.00  14.290    1640.00  40.802    1080.00  256.608
  2190.00  14.487    1630.00  41.839    1070.00  267.267
  2180.00  14.689    1620.00  42.914    1060.00  278.430
  2170.00  14.896    1610.00  44.029    1050.00  290.122
  2160.00  15.108    1600.00  45.184    1040.00  302.366
  2150.00  15.326    1590.00  46.382
  2140.00  15.549    1580.00  47.624
  2130.00  15.777    1570.00  48.913
  2120.00  16.012    1560.00  50.251
  2110.00  16.253    1550.00  51.640
  2100.00  16.499    1540.00  53.081
  2090.00  16.753    1530.00  54.578
  2080.00  17.013    1520.00  56.133
  2070.00  17.280    1510.00  57.748
  2060.00  17.554    1500.00  59.426
  2050.00  17.836    1490.00  61.171
  2040.00  18.125    1480.00  62.984
  2030.00  18.422    1470.00  64.870
  2020.00  18.728    1460.00  66.832
  2010.00  19.042    1450.00  68.872
  2000.00  19.364    1440.00  70.995
  1990.00  19.696    1430.00  73.205
  1980.00  20.037    1420.00  75.505
  1970.00  20.389    1410.00  77.900
  1960.00  20.750    1400.00  80.395
  1950.00  21.121    1390.00  82.994
  1940.00  21.504    1380.00  85.701
  1930.00  21.898    1370.00  88.523
