   Coefficients of polinom: T=K1+K2*(1000.0/R)+...+K7*[(1000.0/R)]**6+... 
__________________________________________________________________________

K1 = -4.885522196651436390
K2 = 99.496091248933225900
K3 = -677.694290388375521000
K4 = 2511.148226257413630000
K5 = -4802.294215150177480000
K6 = 4568.113333672285080000
K7 = -1388.972491046413780000
__________________________				               K568-18
Pre-baked(500K_48hr)-Calibrated (1.5 - 300 K), I measur.= 10.00 mkA	
TMi Carbon Ceramic Sensor (CCS), type A2_HT, N 18

Measured   R,Ohm 5552.480 5000.830 4238.190 3709.960 3363.670 3084.100 
Measured   T,K      1.490    1.681    2.062    2.491    2.917    3.409 
Calculated T,K      1.487    1.684    2.065    2.490    2.916    3.407 
Error     DT,mK    -2.831    3.011    2.624   -0.687   -1.410   -2.465 
__________________________________________________________________________

Measured   R,Ohm 2770.900 2568.780 2385.290 2255.560 2157.930 2014.980 
Measured   T,K      4.226    5.008    6.016    7.008    7.991    9.982 
Calculated T,K      4.224    5.008    6.019    7.012    7.991    9.980 
Error     DT,mK    -1.612   -0.379    3.067    4.020    0.216   -2.411 
__________________________________________________________________________

Measured   R,Ohm 1914.230 1808.650 1731.300 1690.380 1611.100 1551.440 
Measured   T,K     11.990   14.961   17.984   19.976   24.901   29.861 
Calculated T,K     11.991   14.961   17.978   19.973   24.907   29.866 
Error     DT,mK     0.541    0.148   -6.170   -3.283    6.183    4.555 
__________________________________________________________________________

Measured   R,Ohm 1291.120 1227.740 1140.420 1083.050 1038.210 1005.900 
Measured   T,K     77.607  101.902  151.970  200.475  250.805  295.765 
Calculated T,K     77.599  101.903  151.973  200.484  250.789  295.772 
Error     DT,mK    -7.887    1.496    3.179    9.468  -16.007    6.636 
__________________________________________________________________________

    R,Ohm   T,K        R,Ohm   T,K        R,Ohm   T,K        R,Ohm   T,K     

  5530.00   1.494    5330.00   1.562    5130.00   1.634    4930.00   1.713
  5520.00   1.498    5320.00   1.565    5120.00   1.638    4920.00   1.717
  5510.00   1.501    5310.00   1.569    5110.00   1.642    4910.00   1.721
  5500.00   1.504    5300.00   1.572    5100.00   1.645    4900.00   1.725
  5490.00   1.508    5290.00   1.576    5090.00   1.649    4890.00   1.729
  5480.00   1.511    5280.00   1.579    5080.00   1.653    4880.00   1.734
  5470.00   1.514    5270.00   1.583    5070.00   1.657    4870.00   1.738
  5460.00   1.518    5260.00   1.586    5060.00   1.661    4860.00   1.742
  5450.00   1.521    5250.00   1.590    5050.00   1.665    4850.00   1.746
  5440.00   1.524    5240.00   1.594    5040.00   1.669    4840.00   1.751
  5430.00   1.528    5230.00   1.597    5030.00   1.672    4830.00   1.755
  5420.00   1.531    5220.00   1.601    5020.00   1.676    4820.00   1.759
  5410.00   1.534    5210.00   1.604    5010.00   1.680    4810.00   1.764
  5400.00   1.538    5200.00   1.608    5000.00   1.684    4800.00   1.768
  5390.00   1.541    5190.00   1.612    4990.00   1.688    4790.00   1.773
  5380.00   1.545    5180.00   1.615    4980.00   1.692    4780.00   1.777
  5370.00   1.548    5170.00   1.619    4970.00   1.696    4770.00   1.781
  5360.00   1.551    5160.00   1.623    4960.00   1.700    4760.00   1.786
  5350.00   1.555    5150.00   1.627    4950.00   1.705    4750.00   1.790
  5340.00   1.558    5140.00   1.630    4940.00   1.709    4740.00   1.795



  4730.00   1.800    4170.00   2.109    3610.00   2.597    3050.00   3.479
  4720.00   1.804    4160.00   2.116    3600.00   2.609    3040.00   3.501
  4710.00   1.809    4150.00   2.123    3590.00   2.620    3030.00   3.523
  4700.00   1.813    4140.00   2.130    3580.00   2.632    3020.00   3.546
  4690.00   1.818    4130.00   2.137    3570.00   2.644    3010.00   3.569
  4680.00   1.823    4120.00   2.144    3560.00   2.655    3000.00   3.592
  4670.00   1.828    4110.00   2.151    3550.00   2.667    2990.00   3.615
  4660.00   1.832    4100.00   2.158    3540.00   2.679    2980.00   3.639
  4650.00   1.837    4090.00   2.165    3530.00   2.692    2970.00   3.663
  4640.00   1.842    4080.00   2.172    3520.00   2.704    2960.00   3.688
  4630.00   1.847    4070.00   2.180    3510.00   2.716    2950.00   3.713
  4620.00   1.852    4060.00   2.187    3500.00   2.729    2940.00   3.738
  4610.00   1.857    4050.00   2.194    3490.00   2.742    2930.00   3.763
  4600.00   1.862    4040.00   2.202    3480.00   2.755    2920.00   3.789
  4590.00   1.866    4030.00   2.209    3470.00   2.768    2910.00   3.815
  4580.00   1.871    4020.00   2.217    3460.00   2.781    2900.00   3.842
  4570.00   1.877    4010.00   2.225    3450.00   2.794    2890.00   3.869
  4560.00   1.882    4000.00   2.232    3440.00   2.808    2880.00   3.897
  4550.00   1.887    3990.00   2.240    3430.00   2.821    2870.00   3.924
  4540.00   1.892    3980.00   2.248    3420.00   2.835    2860.00   3.953
  4530.00   1.897    3970.00   2.256    3410.00   2.849    2850.00   3.981
  4520.00   1.902    3960.00   2.264    3400.00   2.863    2840.00   4.011
  4510.00   1.907    3950.00   2.272    3390.00   2.877    2830.00   4.040
  4500.00   1.913    3940.00   2.280    3380.00   2.892    2820.00   4.070
  4490.00   1.918    3930.00   2.288    3370.00   2.906    2810.00   4.101
  4480.00   1.923    3920.00   2.297    3360.00   2.921    2800.00   4.132
  4470.00   1.929    3910.00   2.305    3350.00   2.936    2790.00   4.163
  4460.00   1.934    3900.00   2.314    3340.00   2.951    2780.00   4.195
  4450.00   1.940    3890.00   2.322    3330.00   2.966    2770.00   4.227
  4440.00   1.945    3880.00   2.331    3320.00   2.982    2760.00   4.260
  4430.00   1.951    3870.00   2.339    3310.00   2.997    2750.00   4.294
  4420.00   1.956    3860.00   2.348    3300.00   3.013    2740.00   4.328
  4410.00   1.962    3850.00   2.357    3290.00   3.029    2730.00   4.362
  4400.00   1.967    3840.00   2.366    3280.00   3.045    2720.00   4.397
  4390.00   1.973    3830.00   2.375    3270.00   3.062    2710.00   4.433
  4380.00   1.979    3820.00   2.384    3260.00   3.078    2700.00   4.469
  4370.00   1.985    3810.00   2.393    3250.00   3.095    2690.00   4.506
  4360.00   1.990    3800.00   2.403    3240.00   3.112    2680.00   4.544
  4350.00   1.996    3790.00   2.412    3230.00   3.129    2670.00   4.582
  4340.00   2.002    3780.00   2.421    3220.00   3.147    2660.00   4.621
  4330.00   2.008    3770.00   2.431    3210.00   3.164    2650.00   4.660
  4320.00   2.014    3760.00   2.441    3200.00   3.182    2640.00   4.700
  4310.00   2.020    3750.00   2.450    3190.00   3.200    2630.00   4.741
  4300.00   2.026    3740.00   2.460    3180.00   3.219    2620.00   4.783
  4290.00   2.032    3730.00   2.470    3170.00   3.237    2610.00   4.825
  4280.00   2.038    3720.00   2.480    3160.00   3.256    2600.00   4.868
  4270.00   2.045    3710.00   2.490    3150.00   3.275    2590.00   4.912
  4260.00   2.051    3700.00   2.501    3140.00   3.294    2580.00   4.957
  4250.00   2.057    3690.00   2.511    3130.00   3.314    2570.00   5.002
  4240.00   2.063    3680.00   2.521    3120.00   3.333    2560.00   5.048
  4230.00   2.070    3670.00   2.532    3110.00   3.353    2550.00   5.095
  4220.00   2.076    3660.00   2.543    3100.00   3.374    2540.00   5.143
  4210.00   2.083    3650.00   2.553    3090.00   3.394    2530.00   5.192
  4200.00   2.089    3640.00   2.564    3080.00   3.415    2520.00   5.242
  4190.00   2.096    3630.00   2.575    3070.00   3.436    2510.00   5.293
  4180.00   2.103    3620.00   2.586    3060.00   3.458    2500.00   5.345



  2490.00   5.398    1930.00  11.631    1370.00  56.489
  2480.00   5.451    1920.00  11.857    1360.00  58.730
  2470.00   5.506    1910.00  12.090    1350.00  61.084
  2460.00   5.562    1900.00  12.331    1340.00  63.557
  2450.00   5.620    1890.00  12.580    1330.00  66.157
  2440.00   5.678    1880.00  12.838    1320.00  68.889
  2430.00   5.737    1870.00  13.105    1310.00  71.762
  2420.00   5.798    1860.00  13.381    1300.00  74.784
  2410.00   5.860    1850.00  13.666    1290.00  77.963
  2400.00   5.923    1840.00  13.962    1280.00  81.309
  2390.00   5.988    1830.00  14.269    1270.00  84.831
  2380.00   6.054    1820.00  14.587    1260.00  88.539
  2370.00   6.122    1810.00  14.916    1250.00  92.444
  2360.00   6.191    1800.00  15.257    1240.00  96.557
  2350.00   6.261    1790.00  15.611    1230.00  100.892
  2340.00   6.333    1780.00  15.979    1220.00  105.460
  2330.00   6.407    1770.00  16.360    1210.00  110.276
  2320.00   6.482    1760.00  16.755    1200.00  115.355
  2310.00   6.559    1750.00  17.166    1190.00  120.711
  2300.00   6.638    1740.00  17.593    1180.00  126.361
  2290.00   6.719    1730.00  18.036    1170.00  132.324
  2280.00   6.802    1720.00  18.497    1160.00  138.617
  2270.00   6.886    1710.00  18.976    1150.00  145.261
  2260.00   6.973    1700.00  19.475    1140.00  152.276
  2250.00   7.062    1690.00  19.993    1130.00  159.684
  2240.00   7.153    1680.00  20.532    1120.00  167.511
  2230.00   7.246    1670.00  21.093    1110.00  175.780
  2220.00   7.341    1660.00  21.678    1100.00  184.519
  2210.00   7.439    1650.00  22.286    1090.00  193.756
  2200.00   7.539    1640.00  22.920    1080.00  203.521
  2190.00   7.642    1630.00  23.581    1070.00  213.845
  2180.00   7.748    1620.00  24.270    1060.00  224.764
  2170.00   7.857    1610.00  24.988    1050.00  236.313
  2160.00   7.968    1600.00  25.737    1040.00  248.529
  2150.00   8.082    1590.00  26.518    1030.00  261.453
  2140.00   8.199    1580.00  27.333    1020.00  275.128
  2130.00   8.320    1570.00  28.185    1010.00  289.598
  2120.00   8.444    1560.00  29.073    1000.00  304.911
  2110.00   8.571    1550.00  30.002
  2100.00   8.702    1540.00  30.972
  2090.00   8.837    1530.00  31.985
  2080.00   8.975    1520.00  33.045
  2070.00   9.117    1510.00  34.153
  2060.00   9.264    1500.00  35.313
  2050.00   9.415    1490.00  36.525
  2040.00   9.570    1480.00  37.795
  2030.00   9.730    1470.00  39.124
  2020.00   9.895    1460.00  40.515
  2010.00  10.065    1450.00  41.973
  2000.00  10.240    1440.00  43.500
  1990.00  10.420    1430.00  45.101
  1980.00  10.607    1420.00  46.779
  1970.00  10.799    1410.00  48.539
  1960.00  10.997    1400.00  50.385
  1950.00  11.202    1390.00  52.322
  1940.00  11.413    1380.00  54.355
