   Coefficients of polinom: T=K1+K2*(1000.0/R)+...+K7*[(1000.0/R)]**6+... 
__________________________________________________________________________

K1 = -2.344336823822231960
K2 = 57.769752009538933600
K3 = -392.516211827285588000
K4 = 1537.171381905674930000
K5 = -3036.691627204418180000
K6 = 3006.141049530357120000
K7 = -911.518498236313462000
__________________________				               K568-16
Pre-baked(500K_48hr)-Calibrated (1.5 - 300 K), I measur.= 10.00 mkA	
TMi Carbon Ceramic Sensor (CCS), type A2_HT, N 16

Measured   R,Ohm 6123.770 5458.460 4553.120 3934.050 3534.830 3216.030 
Measured   T,K      1.490    1.681    2.062    2.491    2.917    3.409 
Calculated T,K      1.489    1.682    2.063    2.492    2.917    3.408 
Error     DT,mK    -1.471    1.120    1.113    0.668    0.417   -0.955 
__________________________________________________________________________

Measured   R,Ohm 2863.230 2637.690 2434.970 2292.100 2184.840 2029.460 
Measured   T,K      4.226    5.008    6.016    7.008    7.991    9.982 
Calculated T,K      4.224    5.007    6.015    7.009    7.993    9.982 
Error     DT,mK    -1.872   -1.357   -0.615    1.376    2.123   -0.080 
__________________________________________________________________________

Measured   R,Ohm 1920.820 1807.300 1724.610 1681.090 1597.350 1534.370 
Measured   T,K     11.990   14.961   17.984   19.976   24.901   29.861 
Calculated T,K     11.989   14.963   17.983   19.978   24.898   29.863 
Error     DT,mK    -0.905    1.573   -1.008    2.197   -3.031    1.836 
__________________________________________________________________________

Measured   R,Ohm 1263.400 1198.310 1109.180 1050.960 1005.650  973.100 
Measured   T,K     77.607  101.902  151.970  200.475  250.805  295.765 
Calculated T,K     77.602  101.904  151.971  200.486  250.788  295.772 
Error     DT,mK    -4.938    1.740    1.027   10.977  -16.909    6.975 
__________________________________________________________________________

    R,Ohm   T,K        R,Ohm   T,K        R,Ohm   T,K        R,Ohm   T,K     

  6100.00   1.495    5900.00   1.549    5700.00   1.606    5500.00   1.669
  6090.00   1.497    5890.00   1.551    5690.00   1.609    5490.00   1.672
  6080.00   1.500    5880.00   1.554    5680.00   1.612    5480.00   1.675
  6070.00   1.503    5870.00   1.557    5670.00   1.615    5470.00   1.678
  6060.00   1.505    5860.00   1.560    5660.00   1.618    5460.00   1.682
  6050.00   1.508    5850.00   1.563    5650.00   1.621    5450.00   1.685
  6040.00   1.510    5840.00   1.565    5640.00   1.624    5440.00   1.688
  6030.00   1.513    5830.00   1.568    5630.00   1.627    5430.00   1.692
  6020.00   1.516    5820.00   1.571    5620.00   1.631    5420.00   1.695
  6010.00   1.519    5810.00   1.574    5610.00   1.634    5410.00   1.698
  6000.00   1.521    5800.00   1.577    5600.00   1.637    5400.00   1.702
  5990.00   1.524    5790.00   1.580    5590.00   1.640    5390.00   1.705
  5980.00   1.527    5780.00   1.583    5580.00   1.643    5380.00   1.708
  5970.00   1.529    5770.00   1.586    5570.00   1.646    5370.00   1.712
  5960.00   1.532    5760.00   1.588    5560.00   1.649    5360.00   1.715
  5950.00   1.535    5750.00   1.591    5550.00   1.652    5350.00   1.719
  5940.00   1.537    5740.00   1.594    5540.00   1.656    5340.00   1.722
  5930.00   1.540    5730.00   1.597    5530.00   1.659    5330.00   1.726
  5920.00   1.543    5720.00   1.600    5520.00   1.662    5320.00   1.729
  5910.00   1.546    5710.00   1.603    5510.00   1.665    5310.00   1.733



  5300.00   1.736    4740.00   1.967    4180.00   2.296    3620.00   2.812
  5290.00   1.740    4730.00   1.972    4170.00   2.303    3610.00   2.824
  5280.00   1.743    4720.00   1.977    4160.00   2.311    3600.00   2.836
  5270.00   1.747    4710.00   1.982    4150.00   2.318    3590.00   2.848
  5260.00   1.751    4700.00   1.987    4140.00   2.325    3580.00   2.861
  5250.00   1.754    4690.00   1.992    4130.00   2.333    3570.00   2.873
  5240.00   1.758    4680.00   1.997    4120.00   2.340    3560.00   2.885
  5230.00   1.762    4670.00   2.002    4110.00   2.348    3550.00   2.898
  5220.00   1.765    4660.00   2.007    4100.00   2.355    3540.00   2.911
  5210.00   1.769    4650.00   2.012    4090.00   2.363    3530.00   2.924
  5200.00   1.773    4640.00   2.017    4080.00   2.371    3520.00   2.937
  5190.00   1.776    4630.00   2.022    4070.00   2.379    3510.00   2.950
  5180.00   1.780    4620.00   2.027    4060.00   2.387    3500.00   2.963
  5170.00   1.784    4610.00   2.033    4050.00   2.394    3490.00   2.977
  5160.00   1.788    4600.00   2.038    4040.00   2.402    3480.00   2.990
  5150.00   1.792    4590.00   2.043    4030.00   2.411    3470.00   3.004
  5140.00   1.795    4580.00   2.049    4020.00   2.419    3460.00   3.018
  5130.00   1.799    4570.00   2.054    4010.00   2.427    3450.00   3.032
  5120.00   1.803    4560.00   2.059    4000.00   2.435    3440.00   3.046
  5110.00   1.807    4550.00   2.065    3990.00   2.444    3430.00   3.060
  5100.00   1.811    4540.00   2.070    3980.00   2.452    3420.00   3.075
  5090.00   1.815    4530.00   2.076    3970.00   2.460    3410.00   3.089
  5080.00   1.819    4520.00   2.081    3960.00   2.469    3400.00   3.104
  5070.00   1.823    4510.00   2.087    3950.00   2.478    3390.00   3.119
  5060.00   1.827    4500.00   2.093    3940.00   2.486    3380.00   3.134
  5050.00   1.831    4490.00   2.098    3930.00   2.495    3370.00   3.149
  5040.00   1.835    4480.00   2.104    3920.00   2.504    3360.00   3.165
  5030.00   1.839    4470.00   2.110    3910.00   2.513    3350.00   3.181
  5020.00   1.843    4460.00   2.115    3900.00   2.522    3340.00   3.196
  5010.00   1.847    4450.00   2.121    3890.00   2.531    3330.00   3.212
  5000.00   1.851    4440.00   2.127    3880.00   2.540    3320.00   3.228
  4990.00   1.855    4430.00   2.133    3870.00   2.550    3310.00   3.245
  4980.00   1.860    4420.00   2.139    3860.00   2.559    3300.00   3.261
  4970.00   1.864    4410.00   2.145    3850.00   2.569    3290.00   3.278
  4960.00   1.868    4400.00   2.151    3840.00   2.578    3280.00   3.295
  4950.00   1.872    4390.00   2.157    3830.00   2.588    3270.00   3.312
  4940.00   1.877    4380.00   2.163    3820.00   2.597    3260.00   3.329
  4930.00   1.881    4370.00   2.170    3810.00   2.607    3250.00   3.347
  4920.00   1.885    4360.00   2.176    3800.00   2.617    3240.00   3.365
  4910.00   1.889    4350.00   2.182    3790.00   2.627    3230.00   3.383
  4900.00   1.894    4340.00   2.188    3780.00   2.637    3220.00   3.401
  4890.00   1.898    4330.00   2.195    3770.00   2.647    3210.00   3.419
  4880.00   1.903    4320.00   2.201    3760.00   2.658    3200.00   3.438
  4870.00   1.907    4310.00   2.208    3750.00   2.668    3190.00   3.457
  4860.00   1.912    4300.00   2.214    3740.00   2.678    3180.00   3.476
  4850.00   1.916    4290.00   2.221    3730.00   2.689    3170.00   3.495
  4840.00   1.921    4280.00   2.227    3720.00   2.700    3160.00   3.514
  4830.00   1.925    4270.00   2.234    3710.00   2.710    3150.00   3.534
  4820.00   1.930    4260.00   2.241    3700.00   2.721    3140.00   3.554
  4810.00   1.934    4250.00   2.247    3690.00   2.732    3130.00   3.574
  4800.00   1.939    4240.00   2.254    3680.00   2.743    3120.00   3.595
  4790.00   1.944    4230.00   2.261    3670.00   2.755    3110.00   3.616
  4780.00   1.948    4220.00   2.268    3660.00   2.766    3100.00   3.637
  4770.00   1.953    4210.00   2.275    3650.00   2.777    3090.00   3.658
  4760.00   1.958    4200.00   2.282    3640.00   2.789    3080.00   3.679
  4750.00   1.963    4190.00   2.289    3630.00   2.801    3070.00   3.701



  3060.00   3.723    2500.00   5.650    1940.00  11.585    1380.00  49.671
  3050.00   3.746    2490.00   5.703    1930.00  11.793    1370.00  51.499
  3040.00   3.768    2480.00   5.758    1920.00  12.007    1360.00  53.417
  3030.00   3.791    2470.00   5.813    1910.00  12.228    1350.00  55.427
  3020.00   3.815    2460.00   5.869    1900.00  12.456    1340.00  57.536
  3010.00   3.838    2450.00   5.927    1890.00  12.691    1330.00  59.749
  3000.00   3.862    2440.00   5.985    1880.00  12.934    1320.00  62.071
  2990.00   3.886    2430.00   6.045    1870.00  13.185    1310.00  64.510
  2980.00   3.911    2420.00   6.106    1860.00  13.444    1300.00  67.070
  2970.00   3.936    2410.00   6.169    1850.00  13.712    1290.00  69.760
  2960.00   3.961    2400.00   6.232    1840.00  13.989    1280.00  72.587
  2950.00   3.987    2390.00   6.297    1830.00  14.275    1270.00  75.558
  2940.00   4.013    2380.00   6.363    1820.00  14.572    1260.00  78.682
  2930.00   4.039    2370.00   6.431    1810.00  14.878    1250.00  81.967
  2920.00   4.066    2360.00   6.500    1800.00  15.195    1240.00  85.423
  2910.00   4.093    2350.00   6.570    1790.00  15.524    1230.00  89.060
  2900.00   4.120    2340.00   6.642    1780.00  15.864    1220.00  92.888
  2890.00   4.148    2330.00   6.716    1770.00  16.216    1210.00  96.919
  2880.00   4.176    2320.00   6.791    1760.00  16.581    1200.00  101.164
  2870.00   4.205    2310.00   6.868    1750.00  16.959    1190.00  105.636
  2860.00   4.234    2300.00   6.946    1740.00  17.351    1180.00  110.349
  2850.00   4.263    2290.00   7.026    1730.00  17.758    1170.00  115.316
  2840.00   4.293    2280.00   7.108    1720.00  18.179    1160.00  120.554
  2830.00   4.323    2270.00   7.192    1710.00  18.617    1150.00  126.077
  2820.00   4.354    2260.00   7.278    1700.00  19.071    1140.00  131.904
  2810.00   4.385    2250.00   7.366    1690.00  19.543    1130.00  138.052
  2800.00   4.417    2240.00   7.456    1680.00  20.032    1120.00  144.542
  2790.00   4.449    2230.00   7.548    1670.00  20.541    1110.00  151.393
  2780.00   4.482    2220.00   7.643    1660.00  21.070    1100.00  158.627
  2770.00   4.515    2210.00   7.739    1650.00  21.619    1090.00  166.269
  2760.00   4.549    2200.00   7.838    1640.00  22.191    1080.00  174.342
  2750.00   4.583    2190.00   7.940    1630.00  22.785    1070.00  182.873
  2740.00   4.617    2180.00   8.044    1620.00  23.403    1060.00  191.891
  2730.00   4.653    2170.00   8.150    1610.00  24.046    1050.00  201.424
  2720.00   4.689    2160.00   8.260    1600.00  24.716    1040.00  211.506
  2710.00   4.725    2150.00   8.372    1590.00  25.413    1030.00  222.168
  2700.00   4.762    2140.00   8.486    1580.00  26.139    1020.00  233.448
  2690.00   4.800    2130.00   8.604    1570.00  26.896    1010.00  245.382
  2680.00   4.838    2120.00   8.725    1560.00  27.685    1000.00  258.012
  2670.00   4.877    2110.00   8.850    1550.00  28.507    990.00  271.378
  2660.00   4.916    2100.00   8.977    1540.00  29.364    980.00  285.528
  2650.00   4.956    2090.00   9.108    1530.00  30.258    970.00  300.507
  2640.00   4.997    2080.00   9.243    1520.00  31.191    
  2630.00   5.039    2070.00   9.381    1510.00  32.165
  2620.00   5.081    2060.00   9.523    1500.00  33.182
  2610.00   5.124    2050.00   9.669    1490.00  34.244
  2600.00   5.168    2040.00   9.819    1480.00  35.353
  2590.00   5.212    2030.00   9.973    1470.00  36.512
  2580.00   5.257    2020.00  10.132    1460.00  37.724
  2570.00   5.303    2010.00  10.296    1450.00  38.990
  2560.00   5.350    2000.00  10.464    1440.00  40.315
  2550.00   5.398    1990.00  10.637    1430.00  41.701
  2540.00   5.446    1980.00  10.816    1420.00  43.152
  2530.00   5.496    1970.00  11.000    1410.00  44.670
  2520.00   5.546    1960.00  11.189    1400.00  46.260
  2510.00   5.598    1950.00  11.384    1390.00  47.926
