   Coefficients of polinom: T=K1+K2*(1000.0/R)+...+K7*[(1000.0/R)]**6+... 
__________________________________________________________________________

K1 = 0.465207232364264200
K2 = 9.502532581012928860
K3 = -20.974005020689219200
K4 = 226.778322260361165000
K5 = -597.868652229197323000
K6 = 891.037118933163583000
K7 = -238.813496846938506000
__________________________				               K248-13
		           Calibrated (1.5 - 300 K), I measur.= 10.00 µA
TMi Carbon Ceramic Sensor (CCS), type A2, N 834

Measured   R,Ohm 9030.440 8261.490 7688.460 6212.810 5099.210 4540.880 
Measured   T,K      1.492    1.605    1.707    2.088    2.593    2.990 
Calculated T,K      1.493    1.604    1.706    2.088    2.593    2.991 
Error     DT,mK     0.730   -0.630   -0.770   -0.179    0.066    0.812 
__________________________________________________________________________

Measured   R,Ohm 4166.990 3791.910 3564.670 3213.170 2902.530 2530.790 
Measured   T,K      3.351    3.835    4.214    5.008    6.028    8.036 
Calculated T,K      3.353    3.836    4.216    5.003    6.026    8.035 
Error     DT,mK     1.615    1.303    1.884   -5.226   -2.167   -0.677 
__________________________________________________________________________

Measured   R,Ohm 2313.210 2160.180 2001.200 1892.100 1832.730 1644.150 
Measured   T,K      9.987   12.002   15.037   17.996   20.044   29.770 
Calculated T,K      9.988   12.003   15.039   17.998   20.043   29.768 
Error     DT,mK     1.364    0.874    1.961    2.350   -0.714   -2.406 
__________________________________________________________________________

Measured   R,Ohm 1309.160 1218.080 1117.900 1067.590 1018.600  982.860 
Measured   T,K     77.292  107.205  159.693  198.285  247.583  293.160 
Calculated T,K     77.291  107.202  159.695  198.297  247.566  293.167 
Error     DT,mK    -0.777   -2.739    2.305   11.531  -17.444    6.934 
__________________________________________________________________________

    R,Ohm   T,K        R,Ohm   T,K        R,Ohm   T,K        R,Ohm   T,K     

  9000.00   1.497    8800.00   1.524    8600.00   1.552    8400.00   1.582
  8990.00   1.498    8790.00   1.525    8590.00   1.554    8390.00   1.584
  8980.00   1.499    8780.00   1.526    8580.00   1.555    8380.00   1.585
  8970.00   1.501    8770.00   1.528    8570.00   1.557    8370.00   1.587
  8960.00   1.502    8760.00   1.529    8560.00   1.558    8360.00   1.589
  8950.00   1.503    8750.00   1.531    8550.00   1.560    8350.00   1.590
  8940.00   1.505    8740.00   1.532    8540.00   1.561    8340.00   1.592
  8930.00   1.506    8730.00   1.533    8530.00   1.563    8330.00   1.593
  8920.00   1.507    8720.00   1.535    8520.00   1.564    8320.00   1.595
  8910.00   1.509    8710.00   1.536    8510.00   1.566    8310.00   1.597
  8900.00   1.510    8700.00   1.538    8500.00   1.567    8300.00   1.598
  8890.00   1.511    8690.00   1.539    8490.00   1.569    8290.00   1.600
  8880.00   1.513    8680.00   1.541    8480.00   1.570    8280.00   1.601
  8870.00   1.514    8670.00   1.542    8470.00   1.572    8270.00   1.603
  8860.00   1.515    8660.00   1.543    8460.00   1.573    8260.00   1.605
  8850.00   1.517    8650.00   1.545    8450.00   1.575    8250.00   1.606
  8840.00   1.518    8640.00   1.546    8440.00   1.576    8240.00   1.608
  8830.00   1.520    8630.00   1.548    8430.00   1.578    8230.00   1.610
  8820.00   1.521    8620.00   1.549    8420.00   1.579    8220.00   1.611
  8810.00   1.522    8610.00   1.551    8410.00   1.581    8210.00   1.613

  8200.00   1.614    7640.00   1.716    7080.00   1.838    6520.00   1.989
  8190.00   1.616    7630.00   1.718    7070.00   1.841    6510.00   1.992
  8180.00   1.618    7620.00   1.720    7060.00   1.843    6500.00   1.995
  8170.00   1.619    7610.00   1.722    7050.00   1.845    6490.00   1.998
  8160.00   1.621    7600.00   1.724    7040.00   1.848    6480.00   2.001
  8150.00   1.623    7590.00   1.726    7030.00   1.850    6470.00   2.004
  8140.00   1.624    7580.00   1.728    7020.00   1.853    6460.00   2.007
  8130.00   1.626    7570.00   1.730    7010.00   1.855    6450.00   2.011
  8120.00   1.628    7560.00   1.732    7000.00   1.858    6440.00   2.014
  8110.00   1.630    7550.00   1.734    6990.00   1.860    6430.00   2.017
  8100.00   1.631    7540.00   1.736    6980.00   1.863    6420.00   2.020
  8090.00   1.633    7530.00   1.738    6970.00   1.865    6410.00   2.023
  8080.00   1.635    7520.00   1.740    6960.00   1.868    6400.00   2.026
  8070.00   1.636    7510.00   1.742    6950.00   1.870    6390.00   2.029
  8060.00   1.638    7500.00   1.744    6940.00   1.873    6380.00   2.033
  8050.00   1.640    7490.00   1.746    6930.00   1.875    6370.00   2.036
  8040.00   1.642    7480.00   1.748    6920.00   1.878    6360.00   2.039
  8030.00   1.643    7470.00   1.750    6910.00   1.881    6350.00   2.042
  8020.00   1.645    7460.00   1.753    6900.00   1.883    6340.00   2.045
  8010.00   1.647    7450.00   1.755    6890.00   1.886    6330.00   2.049
  8000.00   1.649    7440.00   1.757    6880.00   1.888    6320.00   2.052
  7990.00   1.650    7430.00   1.759    6870.00   1.891    6310.00   2.055
  7980.00   1.652    7420.00   1.761    6860.00   1.894    6300.00   2.058
  7970.00   1.654    7410.00   1.763    6850.00   1.896    6290.00   2.062
  7960.00   1.656    7400.00   1.765    6840.00   1.899    6280.00   2.065
  7950.00   1.657    7390.00   1.767    6830.00   1.902    6270.00   2.068
  7940.00   1.659    7380.00   1.770    6820.00   1.904    6260.00   2.072
  7930.00   1.661    7370.00   1.772    6810.00   1.907    6250.00   2.075
  7920.00   1.663    7360.00   1.774    6800.00   1.910    6240.00   2.079
  7910.00   1.665    7350.00   1.776    6790.00   1.912    6230.00   2.082
  7900.00   1.666    7340.00   1.778    6780.00   1.915    6220.00   2.085
  7890.00   1.668    7330.00   1.781    6770.00   1.918    6210.00   2.089
  7880.00   1.670    7320.00   1.783    6760.00   1.920    6200.00   2.092
  7870.00   1.672    7310.00   1.785    6750.00   1.923    6190.00   2.096
  7860.00   1.674    7300.00   1.787    6740.00   1.926    6180.00   2.099
  7850.00   1.676    7290.00   1.789    6730.00   1.929    6170.00   2.103
  7840.00   1.677    7280.00   1.792    6720.00   1.931    6160.00   2.106
  7830.00   1.679    7270.00   1.794    6710.00   1.934    6150.00   2.110
  7820.00   1.681    7260.00   1.796    6700.00   1.937    6140.00   2.113
  7810.00   1.683    7250.00   1.798    6690.00   1.940    6130.00   2.117
  7800.00   1.685    7240.00   1.801    6680.00   1.943    6120.00   2.120
  7790.00   1.687    7230.00   1.803    6670.00   1.945    6110.00   2.124
  7780.00   1.689    7220.00   1.805    6660.00   1.948    6100.00   2.128
  7770.00   1.691    7210.00   1.808    6650.00   1.951    6090.00   2.131
  7760.00   1.692    7200.00   1.810    6640.00   1.954    6080.00   2.135
  7750.00   1.694    7190.00   1.812    6630.00   1.957    6070.00   2.138
  7740.00   1.696    7180.00   1.814    6620.00   1.960    6060.00   2.142
  7730.00   1.698    7170.00   1.817    6610.00   1.963    6050.00   2.146
  7720.00   1.700    7160.00   1.819    6600.00   1.965    6040.00   2.149
  7710.00   1.702    7150.00   1.822    6590.00   1.968    6030.00   2.153
  7700.00   1.704    7140.00   1.824    6580.00   1.971    6020.00   2.157
  7690.00   1.706    7130.00   1.826    6570.00   1.974    6010.00   2.161
  7680.00   1.708    7120.00   1.829    6560.00   1.977    6000.00   2.164
  7670.00   1.710    7110.00   1.831    6550.00   1.980    5990.00   2.168
  7660.00   1.712    7100.00   1.833    6540.00   1.983    5980.00   2.172
  7650.00   1.714    7090.00   1.836    6530.00   1.986    5970.00   2.176


  5960.00   2.180    5400.00   2.427    4840.00   2.761    4280.00   3.233
  5950.00   2.183    5390.00   2.432    4830.00   2.768    4270.00   3.243
  5940.00   2.187    5380.00   2.437    4820.00   2.775    4260.00   3.253
  5930.00   2.191    5370.00   2.443    4810.00   2.782    4250.00   3.264
  5920.00   2.195    5360.00   2.448    4800.00   2.789    4240.00   3.274
  5910.00   2.199    5350.00   2.453    4790.00   2.796    4230.00   3.285
  5900.00   2.203    5340.00   2.458    4780.00   2.803    4220.00   3.295
  5890.00   2.207    5330.00   2.463    4770.00   2.811    4210.00   3.306
  5880.00   2.211    5320.00   2.469    4760.00   2.818    4200.00   3.317
  5870.00   2.215    5310.00   2.474    4750.00   2.825    4190.00   3.327
  5860.00   2.219    5300.00   2.479    4740.00   2.833    4180.00   3.338
  5850.00   2.223    5290.00   2.485    4730.00   2.840    4170.00   3.349
  5840.00   2.227    5280.00   2.490    4720.00   2.848    4160.00   3.360
  5830.00   2.231    5270.00   2.496    4710.00   2.855    4150.00   3.372
  5820.00   2.235    5260.00   2.501    4700.00   2.863    4140.00   3.383
  5810.00   2.239    5250.00   2.506    4690.00   2.871    4130.00   3.394
  5800.00   2.244    5240.00   2.512    4680.00   2.878    4120.00   3.406
  5790.00   2.248    5230.00   2.518    4670.00   2.886    4110.00   3.417
  5780.00   2.252    5220.00   2.523    4660.00   2.894    4100.00   3.429
  5770.00   2.256    5210.00   2.529    4650.00   2.902    4090.00   3.440
  5760.00   2.260    5200.00   2.534    4640.00   2.910    4080.00   3.452
  5750.00   2.265    5190.00   2.540    4630.00   2.918    4070.00   3.464
  5740.00   2.269    5180.00   2.546    4620.00   2.926    4060.00   3.476
  5730.00   2.273    5170.00   2.551    4610.00   2.934    4050.00   3.488
  5720.00   2.277    5160.00   2.557    4600.00   2.942    4040.00   3.500
  5710.00   2.282    5150.00   2.563    4590.00   2.950    4030.00   3.512
  5700.00   2.286    5140.00   2.569    4580.00   2.958    4020.00   3.525
  5690.00   2.290    5130.00   2.575    4570.00   2.966    4010.00   3.537
  5680.00   2.295    5120.00   2.581    4560.00   2.975    4000.00   3.550
  5670.00   2.299    5110.00   2.587    4550.00   2.983    3990.00   3.562
  5660.00   2.304    5100.00   2.593    4540.00   2.992    3980.00   3.575
  5650.00   2.308    5090.00   2.599    4530.00   3.000    3970.00   3.588
  5640.00   2.313    5080.00   2.605    4520.00   3.009    3960.00   3.601
  5630.00   2.317    5070.00   2.611    4510.00   3.017    3950.00   3.614
  5620.00   2.322    5060.00   2.617    4500.00   3.026    3940.00   3.627
  5610.00   2.326    5050.00   2.623    4490.00   3.035    3930.00   3.641
  5600.00   2.331    5040.00   2.629    4480.00   3.043    3920.00   3.654
  5590.00   2.335    5030.00   2.635    4470.00   3.052    3910.00   3.668
  5580.00   2.340    5020.00   2.642    4460.00   3.061    3900.00   3.681
  5570.00   2.345    5010.00   2.648    4450.00   3.070    3890.00   3.695
  5560.00   2.349    5000.00   2.654    4440.00   3.079    3880.00   3.709
  5550.00   2.354    4990.00   2.661    4430.00   3.088    3870.00   3.723
  5540.00   2.359    4980.00   2.667    4420.00   3.097    3860.00   3.737
  5530.00   2.363    4970.00   2.673    4410.00   3.107    3850.00   3.751
  5520.00   2.368    4960.00   2.680    4400.00   3.116    3840.00   3.766
  5510.00   2.373    4950.00   2.686    4390.00   3.125    3830.00   3.780
  5500.00   2.378    4940.00   2.693    4380.00   3.135    3820.00   3.795
  5490.00   2.383    4930.00   2.700    4370.00   3.144    3810.00   3.809
  5480.00   2.387    4920.00   2.706    4360.00   3.154    3800.00   3.824
  5470.00   2.392    4910.00   2.713    4350.00   3.163    3790.00   3.839
  5460.00   2.397    4900.00   2.720    4340.00   3.173    3780.00   3.854
  5450.00   2.402    4890.00   2.726    4330.00   3.183    3770.00   3.870
  5440.00   2.407    4880.00   2.733    4320.00   3.193    3760.00   3.885
  5430.00   2.412    4870.00   2.740    4310.00   3.203    3750.00   3.900
  5420.00   2.417    4860.00   2.747    4300.00   3.213    3740.00   3.916
  5410.00   2.422    4850.00   2.754    4290.00   3.223    3730.00   3.932


  3720.00   3.948    3160.00   5.151    2600.00   7.563    2040.00  14.181
  3710.00   3.964    3150.00   5.180    2590.00   7.628    2030.00  14.394
  3700.00   3.980    3140.00   5.209    2580.00   7.694    2020.00  14.612
  3690.00   3.997    3130.00   5.239    2570.00   7.761    2010.00  14.837
  3680.00   4.013    3120.00   5.269    2560.00   7.829    2000.00  15.067
  3670.00   4.030    3110.00   5.299    2550.00   7.898    1990.00  15.303
  3660.00   4.047    3100.00   5.330    2540.00   7.969    1980.00  15.546
  3650.00   4.064    3090.00   5.361    2530.00   8.041    1970.00  15.796
  3640.00   4.081    3080.00   5.392    2520.00   8.114    1960.00  16.053
  3630.00   4.098    3070.00   5.424    2510.00   8.189    1950.00  16.316
  3620.00   4.116    3060.00   5.457    2500.00   8.265    1940.00  16.588
  3610.00   4.134    3050.00   5.489    2490.00   8.342    1930.00  16.867
  3600.00   4.151    3040.00   5.523    2480.00   8.421    1920.00  17.153
  3590.00   4.169    3030.00   5.556    2470.00   8.501    1910.00  17.448
  3580.00   4.188    3020.00   5.590    2460.00   8.583    1900.00  17.752
  3570.00   4.206    3010.00   5.625    2450.00   8.666    1890.00  18.065
  3560.00   4.225    3000.00   5.660    2440.00   8.751    1880.00  18.387
  3550.00   4.243    2990.00   5.695    2430.00   8.838    1870.00  18.718
  3540.00   4.262    2980.00   5.731    2420.00   8.926    1860.00  19.059
  3530.00   4.281    2970.00   5.767    2410.00   9.016    1850.00  19.411
  3520.00   4.301    2960.00   5.804    2400.00   9.108    1840.00  19.773
  3510.00   4.320    2950.00   5.841    2390.00   9.202    1830.00  20.146
  3500.00   4.340    2940.00   5.879    2380.00   9.298    1820.00  20.531
  3490.00   4.360    2930.00   5.918    2370.00   9.395    1810.00  20.928
  3480.00   4.380    2920.00   5.957    2360.00   9.495    1800.00  21.337
  3470.00   4.400    2910.00   5.996    2350.00   9.596    1790.00  21.760
  3460.00   4.421    2900.00   6.036    2340.00   9.700    1780.00  22.195
  3450.00   4.441    2890.00   6.077    2330.00   9.806    1770.00  22.645
  3440.00   4.462    2880.00   6.118    2320.00   9.914    1760.00  23.109
  3430.00   4.483    2870.00   6.159    2310.00  10.024    1750.00  23.589
  3420.00   4.505    2860.00   6.202    2300.00  10.137    1740.00  24.084
  3410.00   4.526    2850.00   6.245    2290.00  10.252    1730.00  24.595
  3400.00   4.548    2840.00   6.288    2280.00  10.370    1720.00  25.124
  3390.00   4.570    2830.00   6.333    2270.00  10.490    1710.00  25.670
  3380.00   4.592    2820.00   6.377    2260.00  10.613    1700.00  26.235
  3370.00   4.615    2810.00   6.423    2250.00  10.738    1690.00  26.819
  3360.00   4.638    2800.00   6.469    2240.00  10.867    1680.00  27.423
  3350.00   4.661    2790.00   6.516    2230.00  10.998    1670.00  28.048
  3340.00   4.684    2780.00   6.564    2220.00  11.132    1660.00  28.695
  3330.00   4.708    2770.00   6.612    2210.00  11.269    1650.00  29.365
  3320.00   4.731    2760.00   6.661    2200.00  11.410    1640.00  30.058
  3310.00   4.755    2750.00   6.711    2190.00  11.554    1630.00  30.777
  3300.00   4.780    2740.00   6.762    2180.00  11.701    1620.00  31.521
  3290.00   4.804    2730.00   6.813    2170.00  11.851    1610.00  32.292
  3280.00   4.829    2720.00   6.865    2160.00  12.006    1600.00  33.091
  3270.00   4.854    2710.00   6.919    2150.00  12.164    1590.00  33.920
  3260.00   4.880    2700.00   6.973    2140.00  12.325    1580.00  34.779
  3250.00   4.905    2690.00   7.027    2130.00  12.491    1570.00  35.671
  3240.00   4.931    2680.00   7.083    2120.00  12.661    1560.00  36.597
  3230.00   4.958    2670.00   7.140    2110.00  12.834    1550.00  37.557
  3220.00   4.984    2660.00   7.197    2100.00  13.013    1540.00  38.554
  3210.00   5.011    2650.00   7.256    2090.00  13.195    1530.00  39.590
  3200.00   5.039    2640.00   7.315    2080.00  13.383    1520.00  40.666
  3190.00   5.066    2630.00   7.376    2070.00  13.575    1510.00  41.785
  3180.00   5.094    2620.00   7.437    2060.00  13.772    1500.00  42.947
  3170.00   5.122    2610.00   7.500    2050.00  13.974    1490.00  44.156


  1480.00  45.413
  1470.00  46.721
  1460.00  48.082
  1450.00  49.499
  1440.00  50.975
  1430.00  52.512
  1420.00  54.114
  1410.00  55.783
  1400.00  57.524
  1390.00  59.340
  1380.00  61.234
  1370.00  63.211
  1360.00  65.276
  1350.00  67.431
  1340.00  69.683
  1330.00  72.037
  1320.00  74.497
  1310.00  77.070
  1300.00  79.761
  1290.00  82.578
  1280.00  85.526
  1270.00  88.614
  1260.00  91.849
  1250.00  95.239
  1240.00  98.793
  1230.00  102.520
  1220.00  106.430
  1210.00  110.533
  1200.00  114.842
  1190.00  119.367
  1180.00  124.122
  1170.00  129.120
  1160.00  134.375
  1150.00  139.903
  1140.00  145.721
  1130.00  151.846
  1120.00  158.297
  1110.00  165.095
  1100.00  172.260
  1090.00  179.815
  1080.00  187.787
  1070.00  196.200
  1060.00  205.083
  1050.00  214.467
  1040.00  224.385
  1030.00  234.871
  1020.00  245.962
  1010.00  257.700
  1000.00  270.127
  990.00  283.290
  980.00  297.240
  970.00  312.030
